9.217715
87.716969
6.83895
1.784074
1.486728
12.785863
1.784074
90.095734
13.975246
1.784074
23.192961
2.676111
3.568148
1.784074
4.460185
5.352222
3.270802
6.244259
9.515061
14.867283
1.189383
8.623024
1.189383
0.594691
1.189383
4.757531
3.270802
7.136296
7.730987
3.568148
4.757531
7.433641
4.460185
3.270802
5.946913
5.946913
4.162839
10.109752
5.946913
4.162839
2.676111
3.568148
0.892037
1.784074
1.784074
0.297346
1.486728
0.297346
1.784074
0.297346
0.594691
0.297346
5.946913
5.946913
2.08142
2.378765
0.594691
6.244259
0.297346
2.973457
2.973457
0.297346
3.270802
4.460185
1.486728
1.189383
1.486728
0.297346
3.568148
0.892037
0.892037
1.784074
1.784074
20.51685
0.594691
0.297346
0.594691
0.594691
3.270802
1.784074
2.676111
0.892037
0.297346
0.892037
1.189383
0.297346
0.892037
1.486728
11.596481
1.486728
5.649567
1.189383
1.486728
0.594691
0.297346
1.189383
0.297346
0.297346
1.189383
0.297346
0.297346
0.297346
0.297346
1.486728
11.893826
5.649567
0.892037
5.054876
2.08142
0.297346
0.892037
0.297346
1.189383
1.189383
0.594691
0.297346
1.486728
0.594691
8.028333
0.594691
4.460185
0.297346
1.486728
0.297346
0.297346
0.297346
0.594691
0.594691
0.297346
0.594691
2.676111
1.784074
3.568148
2.676111
0.892037
1.784074
0.594691
0.297346
0.594691
4.757531
1.486728
10.109752
1.189383
1.189383
0.297346
2.378765
0.297346
0.297346
0.594691
0.297346
2.378765
1.784074
2.676111
1.784074
6.83895
3.568148
7.730987
1.189383
6.244259
4.162839
0.297346
5.054876
2.676111
2.973457
2.08142
0.297346
0.297346
1.189383
1.486728
3.865494
0.892037
2.973457
11.001789
11.299135
5.054876
0.594691
2.676111
6.541604
4.162839
1.189383
1.486728
1.189383
0.892037
0.297346
0.297346
1.784074
1.486728
11.596481
2.08142
27.653146
1.784074
13.083209
2.08142
3.865494
1.784074
1.784074
2.676111
0.594691
1.784074
2.08142
5.946913
28.842529
22.895616
59.766477
5.352222
3.865494
0.297346
4.162839
25.571727
0.892037
2.378765
2.676111
3.270802
30.031911
2.378765
0.892037
0.297346
3.568148
0.297346
0.892037
1.189383
1.784074
3.865494
9.217715
2.08142
6.541604
1.486728
1.486728
2.08142
1.189383
0.594691
1.189383
25.869072
6.83895
3.568148
0.892037
2.378765
0.297346
0.297346
0.297346
0.892037
3.270802
1.189383
3.568148
8.92037
0.297346
0.892037
2.378765
2.973457
2.378765
7.136296
2.676111
0.892037
1.486728
0.297346
1.189383
0.892037
1.189383
0.594691
5.946913
5.649567
0.297346
2.378765
0.594691
2.08142
3.568148
3.270802
4.460185
1.784074
0.892037
2.676111
2.08142
1.189383
4.162839
3.270802
2.676111
12.488518
4.757531
1.189383
0.297346
0.594691
0.594691
0.594691
0.297346
1.784074
3.270802
5.054876
24.977035
16.948702
0.297346
0.297346
0.297346
2.378765
1.189383
2.676111
1.189383
4.162839
1.486728
7.136296
2.08142
7.136296
16.948702
2.378765
3.568148
0.892037
1.486728
1.486728
5.649567
2.08142
1.486728
0.594691
6.541604
4.757531
0.594691
2.676111
0.594691
17.840739
1.486728
4.757531
0.892037
4.460185
1.784074
14.272592
0.594691
0.297346
0.594691
2.676111
3.865494
3.270802
5.054876
5.946913
28.247837
7.730987
44.601849
8.325678
3.568148
4.162839
2.378765
2.08142
0.892037
2.973457
2.08142
2.378765
2.08142
2.08142
0.297346
2.378765
2.973457
0.297346
2.378765
0.297346
2.973457
4.757531
10.704444
15.461974
2.676111
2.378765
0.297346
3.270802
2.378765
0.892037
1.189383
2.378765
0.594691
0.297346
0.297346
0.892037
4.757531
1.784074
2.378765
0.892037
0.297346
0.594691
0.297346
2.378765
3.865494
0.892037
1.189383
0.594691
0.594691
5.649567
9.217715
2.08142
9.812407
1.189383
14.569937
1.784074
10.704444
3.865494
4.757531
0.594691
5.054876
0.594691
1.784074
1.189383
5.946913
1.486728
8.028333
0.297346
10.109752
11.596481
0.297346
2.08142
0.594691
1.486728
0.297346
2.378765
1.486728
1.189383
0.892037
2.676111
0.594691
3.865494
1.784074
0.892037
0.594691
0.892037
1.189383
3.270802
1.189383
16.948702
2.676111
0.297346
0.297346
17.543394
0.297346
2.378765
1.189383
1.784074
0.297346
1.189383
0.297346
4.162839
4.757531
20.814196
21.111542
2.378765
0.594691
0.594691
5.649567
2.676111
3.270802
2.378765
24.084998
1.784074
1.189383
77.012525
0.892037
5.352222
1.189383
10.407098
3.270802
1.189383
2.08142
18.138085
1.486728
3.865494
10.407098
14.569937
0.297346
6.244259
0.594691
1.189383
1.784074
1.486728
0.892037
1.486728
0.297346
2.08142
2.973457
0.297346
4.162839
0.297346
0.297346
1.189383
2.676111
2.08142
0.297346
0.297346
2.08142
3.568148
0.594691
2.08142
5.649567
4.460185
2.676111
1.486728
4.460185
1.189383
0.297346
0.297346
1.189383
1.486728
1.784074
0.892037
2.378765
2.973457
1.784074
3.270802
9.515061
0.892037
1.486728
1.189383
0.594691
0.594691
0.297346
2.378765
1.189383
4.162839
2.08142
2.378765
0.892037
1.784074
0.297346
3.568148
0.594691
1.189383
0.297346
0.297346
0.297346
0.594691
5.946913
2.378765
2.08142
4.162839
3.865494
1.486728
1.784074
1.784074
1.486728
0.297346
1.784074
0.594691
0.297346
1.486728
0.892037
2.378765
0.892037
0.297346
0.892037
0.297346
6.244259
0.297346
0.297346
2.973457
1.189383
2.378765
19.327468
2.378765
5.649567
5.352222
3.865494
2.676111
4.162839
2.973457
0.892037
1.784074
1.189383
1.486728
0.594691
1.486728
2.378765
1.486728
2.676111
2.676111
1.486728
0.297346
1.189383
1.189383
3.568148
0.892037
0.297346
0.892037
4.460185
2.378765
1.189383
0.594691
0.297346
1.784074
3.270802
2.973457
8.325678
1.486728
0.892037
1.784074
0.594691
11.001789
1.784074
1.189383
0.594691
1.189383
0.892037
0.892037
2.08142
0.594691
1.486728
5.946913
0.594691
2.08142
0.594691
1.486728
2.676111
14.569937
2.676111
1.486728
1.189383
14.569937
6.83895
0.297346
0.297346
1.784074
2.676111
1.189383
2.378765
3.270802
0.594691
4.162839
1.486728
7.136296
9.515061
5.054876
0.892037
0.892037
2.973457
6.83895
2.08142
6.541604
2.676111
6.83895
2.973457
188.517147
7.136296
0.297346
0.892037
0.594691
0.297346
4.757531
7.433641
13.380555
3.270802
2.378765
32.113331
0.594691
0.297346
3.270802
0.594691
6.83895
0.892037
2.08142
9.812407
2.676111
8.623024
2.973457
0.892037
1.486728
2.676111
3.865494
0.594691
0.297346
0.892037
5.054876
0.892037
7.433641
2.08142
4.162839
0.594691
2.378765
7.136296
0.297346
0.297346
0.297346
0.297346
0.297346
2.378765
0.297346
0.297346
1.486728
1.189383
1.784074
7.433641
1.784074
1.784074
5.946913
3.270802
2.378765
0.297346
1.189383
0.297346
1.784074
1.189383
2.676111
0.297346
0.297346
0.594691
0.297346
1.784074
1.784074
0.892037
0.297346
0.297346
0.297346
0.297346
4.460185
0.297346
1.486728
5.054876
1.189383
0.297346
1.784074
6.83895
2.676111
0.297346
0.892037
0.297346
0.892037
0.297346
0.297346
0.297346
9.812407
4.757531
22.003579
4.460185
0.297346
3.568148
5.946913
0.594691
0.892037
0.594691
0.594691
0.892037
0.594691
5.352222
2.08142
2.378765
7.136296
1.486728
17.246048
2.676111
29.43722
3.568148
2.973457
0.892037
1.189383
2.08142
2.08142
1.189383
0.297346
1.784074
2.973457
12.191172
4.460185
7.433641
9.217715
0.594691
7.433641
0.594691
0.297346
0.297346
1.189383
0.297346
0.297346
0.594691
0.892037
8.92037
5.352222
5.054876
17.543394
1.784074
8.623024
0.297346
0.297346
0.297346
0.594691
0.297346
0.297346
0.297346
0.594691
2.378765
3.270802
0.594691
0.892037
3.270802
0.892037
0.594691
5.352222
0.892037
0.297346
1.486728
7.136296
1.784074
0.297346
0.594691
1.189383
2.08142
2.378765
4.460185
1.189383
2.676111
2.08142
0.594691
2.676111
5.054876
0.297346
0.297346
2.676111
1.784074
1.189383
4.460185
2.378765
1.486728
2.08142
2.378765
4.162839
0.297346
1.189383
0.892037
1.189383
3.270802
4.460185
0.892037
1.784074
4.162839
0.594691
1.189383
0.297346
8.92037
6.244259
10.109752
1.189383
5.649567
5.649567
0.892037
2.973457
1.189383
0.892037
2.676111
19.922159
4.757531
3.865494
8.92037
1.486728
31.221294
0.892037
8.623024
3.865494
1.486728
28.247837
1.784074
3.865494
0.892037
7.433641
3.568148
8.028333
3.568148
0.297346
2.676111
1.486728
1.189383
9.515061
4.162839
17.543394
0.297346
0.892037
0.594691
0.297346
0.297346
0.297346
0.297346
0.297346
1.486728
0.297346
1.189383
0.297346
3.270802
2.676111
2.676111
2.973457
3.270802
0.594691
2.08142
0.297346
0.297346
4.162839
1.189383
5.054876
2.973457
34.194751
1.486728
123.695794
5.352222
2.676111
1.189383
0.594691
0.594691
0.297346
1.189383
1.784074
3.270802
5.054876
1.486728
3.568148
1.486728
0.594691
10.704444
3.865494
2.378765
2.08142
14.272592
2.973457
1.486728
7.136296
1.784074
0.892037
5.649567
3.270802
0.892037
0.297346
0.297346
0.297346
1.189383
0.297346
2.08142
3.865494
2.973457
4.757531
1.486728
4.162839
0.594691
4.162839
2.08142
1.486728
5.352222
8.92037
1.486728
0.297346
0.297346
0.892037
0.594691
0.297346
0.297346
0.297346
0.892037
0.594691
4.460185
1.784074
0.594691
2.378765
0.297346
0.892037
0.892037
0.297346
1.486728
0.892037
0.297346
0.892037
3.865494
2.08142
27.653146
0.594691
0.297346
0.594691
2.378765
1.189383
0.892037
2.08142
6.83895
22.003579
3.865494
0.892037
0.892037
1.486728
0.594691
0.297346
0.297346
0.297346
0.297346
0.594691
5.352222
1.189383
2.378765
0.892037
0.297346
3.270802
4.757531
3.568148
0.297346
1.784074
2.08142
0.594691
2.973457
0.297346
0.594691
2.08142
1.486728
2.378765
2.676111
1.784074
2.676111
6.244259
6.244259
2.973457
0.594691
2.676111
4.757531
3.270802
0.594691
0.892037
24.977035
1.189383
0.892037
3.865494
1.784074
0.594691
1.784074
0.892037
0.297346
0.297346
1.189383
0.297346
1.486728
1.189383
1.784074
2.973457
0.594691
0.297346
0.892037
0.297346
0.297346
0.297346
0.892037
0.297346
0.594691
1.189383
8.92037
0.594691
3.270802
10.407098
0.892037
4.460185
0.594691
1.784074
79.688636
2.378765
1.784074
2.08142
12.785863
5.649567
1.189383
1.189383
0.594691
2.676111
8.028333
41.925738
10.704444
2.676111
2.973457
2.676111
2.973457
6.541604
0.594691
2.378765
5.054876
0.594691
3.270802
0.594691
1.784074
2.973457
3.568148
4.460185
0.594691
6.541604
4.757531
4.757531
2.973457
8.623024
2.378765
2.08142
1.189383
1.486728
0.892037
0.892037
1.486728
4.460185
2.08142
3.270802
5.054876
12.191172
0.892037
0.892037
1.189383
2.08142
6.541604
2.378765
4.162839
0.594691
2.973457
2.378765
103.178943
0.594691
0.892037
3.568148
9.217715
1.189383
2.08142
1.486728
0.594691
2.676111
6.541604
28.842529
1.486728
1.486728
2.08142
3.270802
0.297346
1.784074
0.297346
1.486728
1.784074
2.378765
4.162839
1.189383
10.704444
9.812407
0.297346
1.189383
0.892037
0.297346
0.297346
0.297346
0.594691
0.297346
1.189383
9.812407
0.594691
1.486728
1.189383
0.297346
4.162839
0.297346
1.189383
0.297346
0.297346
4.460185
2.676111
0.892037
2.08142
2.378765
2.08142
3.270802
0.297346
2.973457
0.297346
1.784074
0.297346
0.297346
0.297346
0.297346
1.486728
0.892037
0.892037
1.784074
0.297346
0.297346
0.297346
0.594691
0.594691
1.784074
0.594691
0.297346
0.892037
0.297346
0.297346
1.189383
0.892037
0.892037
2.08142
0.297346
3.865494
0.594691
0.297346
0.594691
7.136296
3.568148
10.407098
15.75932
0.892037
0.297346
0.297346
1.189383
1.784074
1.486728
0.297346
1.784074
0.297346
0.892037
9.812407
0.297346
1.486728
2.378765
0.297346
0.892037
3.865494
2.378765
0.297346
1.486728
1.784074
0.594691
2.676111
0.594691
0.297346
1.784074
0.297346
0.892037
0.297346
0.892037
1.189383
2.676111
0.297346
1.486728
0.297346
0.594691
0.297346
1.189383
0.297346
0.297346
0.892037
2.676111
0.297346
1.784074
6.541604
0.297346
1.486728
3.568148
4.162839
0.297346
0.594691
0.892037
0.594691
0.594691
0.297346
1.189383
0.297346
0.297346
9.515061
3.865494
0.594691
1.189383
0.297346
1.486728
0.594691
0.297346
1.189383
1.189383
1.486728
1.486728
3.568148
5.352222
142.725916
4.460185
10.704444
0.594691
1.189383
1.486728
0.297346
0.892037
0.297346
1.189383
0.297346
0.297346
0.297346
0.892037
13.6779
8.92037
0.594691
2.378765
0.594691
4.460185
0.297346
0.297346
0.297346
0.297346
1.189383
0.297346
0.892037
0.594691
1.486728
3.865494
2.676111
0.594691
0.297346
0.297346
1.486728
1.486728
